ASTAR: Stopping Powers and Range Tables for Alpha Particles

WATER, LIQUID                                                           

Kinetic  	Electron.	Nuclear  	Total    	
Energy   	Stp. Pow.	Stp. Pow.	Stp. Pow.	
MeV      	MeV cm2/g	MeV cm2/g	MeV cm2/g	

1.000E-03	9.891E+01	2.282E+02	3.271E+02	
1.500E-03	1.227E+02	2.078E+02	3.305E+02	
2.000E-03	1.431E+02	1.912E+02	3.342E+02	
2.500E-03	1.611E+02	1.775E+02	3.386E+02	
3.000E-03	1.775E+02	1.660E+02	3.435E+02	
4.000E-03	2.069E+02	1.477E+02	3.546E+02	
5.000E-03	2.330E+02	1.336E+02	3.667E+02	
6.000E-03	2.568E+02	1.225E+02	3.793E+02	
7.000E-03	2.788E+02	1.133E+02	3.921E+02	
8.000E-03	2.993E+02	1.056E+02	4.049E+02	
9.000E-03	3.186E+02	9.908E+01	4.177E+02	
1.000E-02	3.370E+02	9.341E+01	4.304E+02	
1.250E-02	3.795E+02	8.206E+01	4.615E+02	
1.500E-02	4.181E+02	7.347E+01	4.916E+02	
1.750E-02	4.538E+02	6.671E+01	5.205E+02	
2.000E-02	4.871E+02	6.123E+01	5.484E+02	
2.250E-02	5.186E+02	5.667E+01	5.752E+02	
2.500E-02	5.483E+02	5.282E+01	6.012E+02	
2.750E-02	5.767E+02	4.952E+01	6.263E+02	
3.000E-02	6.039E+02	4.665E+01	6.506E+02	
3.500E-02	6.552E+02	4.189E+01	6.971E+02	
4.000E-02	7.030E+02	3.811E+01	7.411E+02	
4.500E-02	7.480E+02	3.501E+01	7.830E+02	
5.000E-02	7.905E+02	3.242E+01	8.230E+02	
5.500E-02	8.310E+02	3.023E+01	8.612E+02	
6.000E-02	8.696E+02	2.834E+01	8.980E+02	
6.500E-02	9.066E+02	2.669E+01	9.333E+02	
7.000E-02	9.422E+02	2.524E+01	9.674E+02	
7.500E-02	9.764E+02	2.396E+01	1.000E+03	
8.000E-02	1.009E+03	2.281E+01	1.032E+03	
8.500E-02	1.041E+03	2.178E+01	1.063E+03	
9.000E-02	1.072E+03	2.084E+01	1.093E+03	
9.500E-02	1.102E+03	1.999E+01	1.122E+03	
1.000E-01	1.131E+03	1.921E+01	1.151E+03	
1.250E-01	1.265E+03	1.614E+01	1.281E+03	
1.500E-01	1.383E+03	1.397E+01	1.397E+03	
1.750E-01	1.488E+03	1.235E+01	1.500E+03	
2.000E-01	1.582E+03	1.109E+01	1.593E+03	
2.250E-01	1.666E+03	1.008E+01	1.677E+03	
2.500E-01	1.743E+03	9.253E+00	1.752E+03	
2.750E-01	1.811E+03	8.559E+00	1.820E+03	
3.000E-01	1.873E+03	7.969E+00	1.881E+03	
3.500E-01	1.978E+03	7.017E+00	1.985E+03	
4.000E-01	2.062E+03	6.282E+00	2.069E+03	
4.500E-01	2.128E+03	5.694E+00	2.134E+03	
5.000E-01	2.178E+03	5.214E+00	2.184E+03	
5.500E-01	2.215E+03	4.813E+00	2.220E+03	
6.000E-01	2.240E+03	4.473E+00	2.245E+03	
6.500E-01	2.255E+03	4.181E+00	2.260E+03	
7.000E-01	2.262E+03	3.927E+00	2.266E+03	
7.500E-01	2.262E+03	3.703E+00	2.266E+03	
8.000E-01	2.256E+03	3.506E+00	2.260E+03	
8.500E-01	2.245E+03	3.330E+00	2.248E+03	
9.000E-01	2.230E+03	3.171E+00	2.233E+03	
9.500E-01	2.211E+03	3.028E+00	2.215E+03	
1.000E+00	2.190E+03	2.898E+00	2.193E+03	
1.250E+00	2.050E+03	2.393E+00	2.052E+03	
1.500E+00	1.896E+03	2.045E+00	1.898E+03	
1.750E+00	1.752E+03	1.790E+00	1.754E+03	
2.000E+00	1.624E+03	1.594E+00	1.625E+03	
2.250E+00	1.511E+03	1.439E+00	1.512E+03	
2.500E+00	1.414E+03	1.312E+00	1.415E+03	
2.750E+00	1.329E+03	1.207E+00	1.330E+03	
3.000E+00	1.255E+03	1.119E+00	1.257E+03	
3.500E+00	1.132E+03	9.770E-01	1.133E+03	
4.000E+00	1.034E+03	8.686E-01	1.035E+03	
4.500E+00	9.527E+02	7.828E-01	9.535E+02	
5.000E+00	8.848E+02	7.132E-01	8.855E+02	
5.500E+00	8.269E+02	6.554E-01	8.275E+02	
6.000E+00	7.771E+02	6.066E-01	7.777E+02	
6.500E+00	7.334E+02	5.649E-01	7.340E+02	
7.000E+00	6.949E+02	5.288E-01	6.954E+02	
7.500E+00	6.607E+02	4.973E-01	6.612E+02	
8.000E+00	6.301E+02	4.694E-01	6.306E+02	
8.500E+00	6.025E+02	4.447E-01	6.030E+02	
9.000E+00	5.776E+02	4.225E-01	5.780E+02	
9.500E+00	5.548E+02	4.025E-01	5.552E+02	
1.000E+01	5.340E+02	3.844E-01	5.344E+02	
1.250E+01	4.514E+02	3.145E-01	4.517E+02	
1.500E+01	3.927E+02	2.667E-01	3.930E+02	
1.750E+01	3.487E+02	2.319E-01	3.489E+02	
2.000E+01	3.144E+02	2.054E-01	3.146E+02	
2.500E+01	2.639E+02	1.676E-01	2.641E+02	
2.750E+01	2.448E+02	1.535E-01	2.449E+02	
3.000E+01	2.284E+02	1.417E-01	2.286E+02	
3.500E+01	2.020E+02	1.229E-01	2.021E+02	
4.000E+01	1.815E+02	1.087E-01	1.816E+02	
4.500E+01	1.651E+02	9.743E-02	1.652E+02	
5.000E+01	1.516E+02	8.833E-02	1.517E+02	
5.500E+01	1.404E+02	8.081E-02	1.405E+02	
6.000E+01	1.308E+02	7.448E-02	1.309E+02	
6.500E+01	1.226E+02	6.909E-02	1.227E+02	
7.000E+01	1.155E+02	6.443E-02	1.155E+02	
7.500E+01	1.092E+02	6.037E-02	1.092E+02	
8.000E+01	1.036E+02	5.679E-02	1.037E+02	
8.500E+01	9.863E+01	5.363E-02	9.869E+01	
9.000E+01	9.416E+01	5.080E-02	9.421E+01	
9.500E+01	9.012E+01	4.827E-02	9.017E+01	
1.000E+02	8.645E+01	4.598E-02	8.649E+01	
1.250E+02	7.215E+01	3.718E-02	7.219E+01	
1.500E+02	6.229E+01	3.121E-02	6.232E+01	
1.750E+02	5.505E+01	2.689E-02	5.508E+01	
2.000E+02	4.950E+01	2.362E-02	4.952E+01	
2.250E+02	4.510E+01	2.108E-02	4.512E+01	
2.500E+02	4.152E+01	1.903E-02	4.154E+01	
2.750E+02	3.855E+01	1.734E-02	3.857E+01	
3.000E+02	3.604E+01	1.593E-02	3.606E+01	
3.500E+02	3.205E+01	1.370E-02	3.206E+01	
4.000E+02	2.900E+01	1.201E-02	2.901E+01	
4.500E+02	2.659E+01	1.069E-02	2.660E+01	
5.000E+02	2.464E+01	9.637E-03	2.465E+01	
5.500E+02	2.302E+01	8.773E-03	2.303E+01	
6.000E+02	2.167E+01	8.053E-03	2.168E+01	
6.500E+02	2.051E+01	7.441E-03	2.052E+01	
7.000E+02	1.952E+01	6.914E-03	1.952E+01	
7.500E+02	1.865E+01	6.455E-03	1.865E+01	
8.000E+02	1.788E+01	6.052E-03	1.789E+01	
8.500E+02	1.721E+01	5.697E-03	1.721E+01	
9.000E+02	1.660E+01	5.382E-03	1.661E+01	
9.500E+02	1.606E+01	5.101E-03	1.607E+01	
1.000E+03	1.557E+01	4.848E-03	1.558E+01